157
157
155
157
157
153
154
156
157
157
156
157
156
156
156
158
157
158
157
156
159
156
158
157
158
158
155
157
159
157
158
157
158
158
157
158
160
157
158
159
158
157
154
156
159
159
159
159
159
159
156
157
159
158
159
160
159
159
159
159
160
160
161
161
162
162
159
160
161
159
161
162
161
160
159
161
161
159
161
164
162
162
160
161
159
159
161
165
163
162
160
160
160
160
163
163
162
161
159
160
161
159
162
163
163
163
161
162
162
161
163
165
164
164
161
163
165
163
166
165
164
164
162
164
166
165
166
166
164
164
163
166
168
166
167
168
164
164
165
167
168
167
169
171
166
166
165
168
169
167
168
171
166
165
164
169
169
166
168
171
165
165
167
169
170
165
167
169
168
168
166
170
169
166
168
170
168
169
168
170
169
165
168
170
169
169
168
171
170
168
170
170
168
168
168
171
171
169
173
171
169
170
169
173
171
169
171
172
170
169
169
172
171
169
173
173
170
170
169
172
171
170
172
173
170
170
168
173
172
169
172
173
170
169
169
173
172
171
172
173
170
170
169
173
172
171
173
173
172
171
170
175
176
173
174
176
172
172
172
178
175
172
175
178
175
174
174
177
175
172
175
175
176
176
175
176
176
172
174
175
179
178
177
177
175
174
173
175
178
177
178
179
177
174
175
176
180
180
178
178
177
175
176
176
180
179
179
179
176
175
177
178
178
178
178
180
175
176
177
177
180
180
178
180
178
176
179
178
180
181
179
179
178
176
178
178
181
181
180
183
179
175
178
179
182
181
179
183
180
177
179
181
183
182
182
184
181
179
181
181
182
182
183
183
179
179
181
182
181
181
183
183
179
180
182
180
183
183
181
183
179
180
181
181
182
182
181
183
179
180
181
182
181
181
183
185
180
181
183
181
182
182
183
185
182
181
184
183
183
183
184
187
182
182
185
183
186
186
186
188
183
183
185
184
185
185
187
188
185
184
185
183
183
183
185
186
183
183
186
184
185
184
185
186
182
183
186
183
183
183
184
188
183
182
184
181
183
182
186
188
183
183
184
183
185
185
186
187
184
184
184
183
186
185
186
187
185
183
187
185
185
185
188
190
186
186
187
185
185
186
188
189
187
188
186
184
185
185
188
189
186
185
186
184
186
185
187
188
186
186
185
183
183
183
187
188
185
184
186
183
183
183
186
187
184
184
187
182
184
184
185
186
185
184
186
183
182
183
187
188
185
186
186
183
182
183
187
187
185
187
186
183
183
184
186
185
184
183
186
184
184
184
185
185
183
184
185
183
183
182
185
186
182
183
186
181
182
182
183
184
181
182
184
180
182
183
184
185
181
181
184
182
180
180
183
185
181
181
183
180
179
179
182
183
179
180
185
179
179
180
183
182
179
181
185
180
179
179
182
183
179
183
185
181
180
180
182
183
181
183
184
180
179
180
182
181
180
182
183
180
179
178
179
180
179
181
181
179
177
177
179
178
178
180
180
176
177
177
178
178
177
179
181
175
176
176
176
178
177
179
179
175
175
176
178
177
175
178
177
174
175
175
177
177
175
178
178
174
173
174
175
176
173
175
177
173
174
174
176
174
174
176
178
172
175
174
175
173
173
175
176
173
172
172
173
172
172
175
175
172
170
170
172
171
171
173
173
174
170
170
170
171
169
172
170
169
168
169
168
169
170
170
170
167
168
169
168
167
168
170
170
166
168
169
169
169
168
170
169
167
168
168
167
169
168
169
168
166
168
167
169
170
169
170
170
169
167
167
168
169
169
170
170
167
167
167
168
167
167
168
168
167
166
167
169
166
165
168
168
166
168
169
168
165
165
169
167
166
168
168
168
166
164
166
167
165
166
168
167
167
166
167
165
165
168
168
167
167
166
167
167
165
167
167
167
167
166
167
166
166
166
165
166
164
165
167
166
164
165
165
164
163
163
166
166
164
162
163
163
161
162
166
166
163
163
163
161
160
161
164
164
163
161
160
162
160
159
160
163
163
162
162
161
160
159
160
161
160
162
162
161
159
159
160
160
160
161
160
160
157
158
160
160
160
159
160
159
158
159
161
161
159
158
158
160
156
157
160
159
159
155
156
158
157
156
157
158
158
155
156
158
156
155
156
156
156
157
158
156
155
156
156
156
157
156
156
155
153
154
155
156
158
155
155
153
152
152
154
155
156
155
155
153
152
154
154
153
153
154
155
154
151
152
154
154
153
154
154
154
152
152
154
154
155
155
155
152
150
151
154
153
155
155
156
153
151
151
153
152
154
155
155
150
149
150
153
152
151
153
154
149
149
150
152
152
151
152
153
152
148
150
153
151
151
154
153
154
151
154
158
158
154
156
154
155
154
154
156
158
156
156
155
157
155
154
157
157
157
157
155
158
155
156
157
159
158
157
156
158
157
157
158
159
158
157
157
160
157
158
160
161
159
158
157
160
158
159
161
161
160
159
160
161
159
159
161
163
162
161
161
162
161
160
164
163
162
162
162
163
161
159
162
163
162
163
161
163
161
160
164
165
164
161
162
162
161
161
164
164
164
162
161
162
161
160
163
163
164
161
160
164
161
161
165
165
164
162
162
164
162
162
165
164
164
166
166
165
164
162
165
164
165
167
166
168
165
165
168
166
167
168
168
168
165
164
169
167
168
167
168
168
166
166
169
169
168
168
167
169
166
168
170
169
170
168
167
168
167
166
169
169
170
168
168
168
167
166
170
172
170
168
169
168
166
166
172
172
171
170
169
172
168
169
173
171
171
171
171
173
170
169
172
171
172
172
173
174
169
170
174
171
172
172
174
174
171
169
173
174
175
171
175
175
170
172
176
174
174
172
174
175
172
172
174
171
174
172
175
174
171
171
172
173
175
172
175
176
171
171
173
173
172
175
175
175
171
172
173
173
173
176
176
176
173
173
174
172
173
174
177
176
173
173
174
173
176
174
178
178
173
175
174
174
177
176
179
178
175
175
177
173
176
177
179
177
174
174
175
173
175
177
179
180
176
174
175
175
177
177
179
178
174
175
176
174
177
179
180
177
175
177
177
177
176
178
180
178
176
177
178
176
177
180
179
179
176
177
178
176
178
181
180
178
178
180
181
178
179
182
181
181
179
179
179
179
179
180
182
180
179
181
181
179
180
181
182
182
182
181
181
178
180
180
183
182
181
180
180
177
179
180
182
184
182
182
179
179
178
181
184
185
181
182
181
180
180
182
184
184
183
183
183
181
181
182
183
185
182
185
183
181
183
182
186
183
183
184
184
183
183
183
186
184
184
184
185
183
182
184
188
186
183
185
187
182
184
184
187
187
185
187
186
183
185
183
187
186
187
187
187
185
186
183
188
184
185
187
187
185
186
183
187
184
185
187
187
186
187
184
188
185
184
187
187
185
188
185
188
184
185
187
188
185
187
185
187
184
184
188
189
186
187
186
188
185
184
187
190
188
187
185
188
185
184
188
189
187
186
184
186
183
184
189
189
186
185
183
184
184
184
187
186
183
183
183
185
183
184
187
186
183
183
182
186
183
183
189
187
185
184
181
186
182
184
189
187
185
184
182
185
184
185
188
188
186
184
183
185
183
185
188
188
185
186
180
184
184
184
187
188
186
186
181
183
183
184
189
188
185
188
181
183
180
183
188
187
185
187
180
183
180
181
186
186
185
185
179
184
179
180
185
185
184
184
180
183
179
182
184
183
184
185
180
183
180
180
184
183
183
184
181
181
179
179
184
183
182
182
178
180
178
179
181
181
183
181
180
180
178
178
181
180
180
182
178
178
177
178
179
179
179
181
177
178
176
178
179
177
179
180
176
178
175
176
177
176
177
180
176
179
174
176
177
177
177
179
175
175
174
178
177
177
178
178
175
177
172
175
177
175
177
177
175
174
172
174
175
174
177
178
173
172
172
174
173
173
176
178
173
174
171
172
175
172
177
177
171
171
170
172
173
171
175
176
174
172
169
170
171
170
173
175
172
170
168
168
170
168
171
173
168
170
167
170
171
169
171
173
167
168
167
170
168
168
171
171
168
168
166
167
169
167
170
171
169
170
166
168
168
166
168
170
168
168
167
167
166
165
169
170
170
169
168
170
169
168
169
170
170
169
167
168
167
168
170
170
168
169
168
168
169
168
169
169
168
168
166
168
168
166
168
168
167
166
165
167
168
166
167
168
166
165
165
167
166
165
167
168
166
167
165
166
166
165
166
166
167
167
165
165
165
165
165
166
167
166
165
165
161
161
165
165
166
166
166
164
162
161
163
164
164
164
163
162
164
161
163
163
164
165
161
163
161
160
161
161
164
163
161
162
162
158
160
161
163
162
160
161
161
159
161
159
161
162
161
161
161
160
161
158
162
162
161
161
159
159
160
159
161
162
160
162
159
158
160
159
161
162
160
160
158
157
160
160
161
160
159
160
158
157
158
158
160
157
155
158
158
156
157
159
158
155
156
159
156
155
156
155
161
156
156
158
156
154
156
155
157
156
154
157
155
154
156
153
155
155
155
158
155
156
156
154
154
156
156
156
155
155
155
153
156
156
155
157
157
155
154
153
156
157
157
158
155
154
156
153
156
155
157
159
154
152
154
154
154
153
155
158
154
152
154
152
152
154
153
156
154
152
153
152
153
153
152
157
154
153
154
151
156
157
155
157
157
156
158
161
157
157
154
155
159
158
160
162
157
158
155
157
160
158
159
161
157
158
157
158
161
158
160
165
160
160
159
159
162
161
161
165
161
162
160
160
163
162
162
165
163
162
159
160
162
160
162
164
163
162
161
161
163
162
163
164
162
164
163
163
163
162
164
165
164
163
163
163
164
162
164
168
164
164
162
164
164
164
167
168
167
166
163
164
164
165
167
169
167
166
164
166
168
166
167
169
169
167
166
168
170
168
168
171
168
168
166
168
170
168
170
171
168
168
165
169
171
167
170
172
170
169
168
169
171
169
171
171
172
170
171
171
171
170
169
173
169
170
170
171
171
170
172
174
172
171
170
172
172
171
173
175
174
173
173
174
173
172
173
175
174
174
172
173
175
172
173
174
175
174
173
174
175
174
174
174
173
175
174
175
175
174
172
174
174
175
174
176
176
175
176
176
175
176
174
176
175
174
177
177
175
177
175
176
178
176
177
178
177
176
176
177
177
176
176
178
177
175
174
178
176
174
178
178
178
176
175
178
177
174
178
180
176
174
176
178
176
176
177
178
176
175
176
178
176
177
177
178
177
177
178
180
179
177
178
179
177
179
178
181
179
176
180
181
179
178
178
180
180
178
179
180
179
178
176
181
180
178
180
180
178
177
177
180
181
178
180
181
178
178
178
181
178
177
179
181
176
177
177
180
179
179
178
178
177
179
179
181
183
180
179
180
180
180
179
182
181
178
181
179
181
180
180
182
181
179
181
180
182
178
179
182
181
180
182
184
182
179
183
183
182
182
183
182
181
180
182
184
183
181
183
182
180
180
183
184
182
182
184
184
183
181
183
185
183
181
184
183
183
181
182
186
184
182
186
186
184
183
183
186
188
187
192
195
184
184
184
187
186
186
186
105
185
186
187
201
125
70
57
7
184
187
195
157
24
7
7
10
185
188
190
81
9
14
10
9
186
192
169
36
14
12
9
9
187
197
132
11
12
11
9
9
188
199
100
1
11
11
10
10
187
199
108
4
11
12
13
13
189
196
137
11
10
12
11
14
188
193
163
18
9
12
11
11
187
190
180
28
8
10
12
14
186
187
193
60
4
11
13
13
186
184
198
135
11
10
12
13
185
184
191
198
79
2
11
13
184
183
189
194
165
45
4
11
184
182
186
189
188
145
42
7
182
182
185
187
184
145
82
10
183
180
183
186
186
162
96
32
181
180
182
184
184
189
182
138
181
179
182
184
182
184
186
189
183
180
183
184
181
183
184
184
183
182
184
183
183
184
186
182
183
181
183
183
182
184
186
182
184
182
182
182
181
183
184
182
183
180
182
182
181
182
183
181
182
181
182
181
179
181
182
181
183
180
180
180
178
181
182
180
182
179
180
180
179
181
181
180
182
180
179
180
180
182
183
179
181
180
180
180
178
180
182
179
181
179
179
180
179
178
181
179
180
179
179
179
178
178
180
177
178
177
178
177
176
178
178
177
178
175
177
176
174
176
177
178
177
176
177
174
175
175
177
176
176
176
177
173
173
177
178
176
175
176
176
175
173
176
178
176
176
175
176
174
173
175
176
174
177
174
175
172
172
174
176
175
175
173
172
173
174
174
174
174
174
172
172
173
172
175
175
174
173
171
172
171
171
172
172
172
172
173
173
171
170
171
170
169
171
173
172
171
169
172
172
170
172
173
172
170
169
171
172
169
172
170
170
169
168
170
172
169
171
170
169
167
168
171
171
169
171
170
168
168
170
170
171
170
168
170
170
169
169
169
169
170
168
168
170
168
168
169
170
168
167
167
170
167
166
169
167
166
168
168
168
166
166
169
168
166
167
167
168
165
166
167
166
165
165
165
167
166
166
167
165
164
164
165
166
166
165
166
164
163
164
165
167
164
162
165
165
165
163
164
166
164
162
165
163
164
164
163
164
163
163
164
163
162
161
162
164
162
161
163
161
162
161
161
162
161
160
162
161
162
159
161
161
160
160
160
160
159
159
161
161
158
158
160
159
158
157
160
161
157
159
159
157
157
157
160
160
157
157
158
157
158
158
160
160
155
156
158
157
157
158
159
159
155
157
159
158
157
156
157
159
155
156
158
156
155
156
157
158
155
155
156
153
154
153
155
157
154
153
154
151
153
152
154
154
154
153
152
150
151
152
153
154
153
153
153
150
151
152
153
154
151
152
152
151
152
152
154
154
152
153
152
150
151
153
154
154
151
152
152
151
151
153
155
153
151
152
150
150
151
152
156
154
152
152
151
150
152
151
153
153
150
151
151
150
151
150
152
152
150
150
151
149
147
152
152
151
149
150
151
150
150
159
160
162
162
161
160
160
159
160
161
163
161
161
163
162
161
161
161
162
161
162
163
162
159
162
161
163
164
162
162
161
160
162
162
165
165
164
165
164
162
164
164
166
168
167
166
167
165
164
165
167
166
168
168
168
166
166
166
168
169
168
168
168
168
165
165
169
169
167
172
168
167
165
167
169
168
168
182
173
167
166
166
169
169
168
171
172
167
166
166
170
168
167
170
170
169
167
167
168
169
169
169
170
168
168
169
171
168
171
172
170
169
168
169
172
171
170
172
172
170
167
169
172
172
171
171
172
171
169
170
173
174
172
173
173
171
172
171
173
173
172
174
173
170
171
173
174
173
174
176
173
172
172
174
176
174
173
176
174
173
173
174
175
173
173
176
175
174
174
174
174
173
174
178
175
173
173
176
176
174
174
177
175
174
175
176
174
173
175
178
176
173
175
176
176
177
177
176
175
175
175
176
176
175
177
177
177
177
176
177
178
174
177
178
178
178
178
179
177
178
179
179
177
178
178
180
178
178
179
180
178
177
177
179
181
178
180
181
179
178
176
179
184
179
179
181
178
179
176
180
179
179
180
181
179
179
176
180
180
180
181
182
179
178
178
181
182
178
181
182
180
180
179
182
183
179
182
182
181
182
181
183
183
179
181
183
181
184
179
182
183
181
182
184
181
185
179
182
181
180
181
183
181
185
178
181
182
179
181
181
180
185
179
180
182
178
181
182
180
184
178
181
181
178
181
183
181
185
177
181
182
179
180
181
181
185
180
182
182
182
183
183
182
187
181
183
184
182
185
185
182
187
181
183
186
183
185
186
184
191
181
183
185
183
184
186
186
198
181
184
186
184
192
195
195
167
186
189
196
185
142
136
84
30
185
166
150
86
9
13
8
11
44
19
13
9
8
8
9
10
6
7
9
9
9
9
9
9
9
9
10
10
9
9
9
9
9
9
10
9
7
6
8
10
9
9
9
7
30
96
95
73
9
9
8
15
74
145
118
122
10
10
9
16
43
48
115
100
10
11
10
9
9
24
129
121
11
11
12
10
9
8
14
17
12
12
11
10
7
20
53
70
12
11
10
8
20
130
182
171
11
9
9
7
89
185
173
190
11
9
7
27
157
162
109
178
10
9
8
56
177
125
38
123
9
8
12
96
176
82
44
184
10
10
9
24
97
113
98
195
9
10
9
12
54
62
87
91
11
8
5
13
22
55
75
79
74
23
53
63
24
68
102
85
179
162
165
101
35
74
84
73
184
188
180
95
44
77
61
87
182
184
181
151
57
77
59
111
182
184
184
170
92
79
59
110
181
182
181
183
155
111
60
98
180
180
180
181
185
181
67
123
181
181
179
180
182
183
111
135
180
182
178
179
181
184
77
69
179
180
177
179
181
185
94
56
178
180
177
177
180
180
180
148
178
179
177
177
180
178
177
163
179
179
176
178
179
177
176
171
178
179
176
177
177
177
177
159
177
178
176
176
177
177
176
177
177
176
175
175
176
177
176
177
177
177
174
174
175
176
175
175
177
175
173
174
175
174
175
175
177
175
173
174
175
174
175
175
175
176
174
174
175
173
174
174
175
175
173
174
174
172
173
174
176
175
172
172
173
174
172
174
174
173
171
171
172
172
172
173
174
174
170
169
172
170
168
173
171
172
171
169
170
169
168
172
171
170
170
169
169
168
170
172
171
172
170
169
169
167
169
170
170
171
169
169
169
167
168
170
171
171
168
169
168
167
168
170
169
172
167
168
168
167
168
169
171
169
165
168
169
168
168
169
170
170
166
166
167
166
166
168
169
168
166
167
166
164
166
166
168
167
165
166
166
165
165
165
168
167
166
166
165
164
164
165
167
167
164
166
165
162
165
165
166
166
163
164
163
162
163
164
165
164
161
163
162
161
161
163
164
163
162
162
160
159
162
162
163
164
162
163
163
158
160
161
162
161
162
162
161
160
159
162
161
162
160
160
160
159
159
160
160
159
159
161
159
155
157
158
160
159
159
159
158
157
157
157
158
159
159
158
158
153
156
157
157
157
157
158
157
153
155
155
157
155
155
157
156
154
154
154
156
155
155
157
156
155
155
153
155
154
155
156
155
153
153
152
154
151
151
154
154
151
152
151
152
151
150
154
153
152
151
150
151
151
151
153
150
149
151
149
152
151
150
152
150
148
149
149
151
149
149
151
149
148
149
149
151
149
149
151
151
149
149
147
152
148
150
151
151
149
150
148
151
148
150
152
151
148
148
148
152
147
148
151
150
147
149
148
151
151
148
150
149
147
147
145
150
149
146
148
149
147
148
146
150
147
147
148
148
146
146
145
160
163
162
162
164
165
162
163
161
164
163
162
163
165
165
165
162
164
163
162
165
165
166
166
162
165
163
164
165
167
164
166
162
164
163
165
166
167
166
168
164
163
162
164
166
167
167
169
165
165
164
165
167
169
168
169
167
168
166
165
168
171
169
168
168
169
166
167
168
170
170
171
169
170
166
168
169
171
171
173
170
170
166
168
170
170
171
171
170
167
166
168
170
171
171
171
168
166
167
168
168
169
170
170
170
169
168
169
170
170
171
172
170
171
170
171
171
173
173
172
173
172
170
172
171
173
173
172
172
171
172
172
172
173
174
174
170
173
172
173
173
174
173
174
173
174
171
174
173
175
175
175
174
174
172
174
174
175
177
175
174
174
173
174
175
174
175
176
175
176
173
175
175
175
177
175
175
174
174
176
174
175
179
178
176
177
175
176
176
178
180
180
177
178
176
178
177
178
180
180
177
176
175
177
178
179
180
179
179
177
176
178
178
179
181
184
179
176
177
180
179
181
181
192
177
177
177
179
180
183
190
166
179
178
180
180
182
191
170
53
180
178
180
182
191
173
55
9
182
181
183
193
161
56
11
15
182
187
183
115
31
12
16
16
187
176
66
9
13
17
16
16
192
95
5
13
13
16
17
15
186
57
9
14
13
13
15
15
181
45
13
15
15
15
14
13
175
32
18
18
17
17
15
14
174
32
17
18
18
17
15
15
177
38
16
18
18
16
16
15
180
42
15
17
17
16
15
14
175
32
16
16
16
17
16
15
175
31
16
16
16
17
16
16
172
29
15
16
16
16
15
15
156
21
14
15
15
15
15
16
130
14
14
14
15
16
15
15
42
10
13
13
13
17
17
11
6
9
8
8
9
9
8
8
12
12
13
6
3
3
6
8
10
15
67
113
94
57
17
5
8
38
63
115
196
213
149
76
12
57
83
89
117
179
160
118
17
30
76
123
113
115
166
157
30
19
28
82
94
88
138
136
143
41
25
54
55
57
100
122
136
91
40
18
18
21
35
55
110
113
91
43
15
14
16
11
96
145
127
88
37
13
14
11
127
153
144
119
81
37
12
11
159
160
157
134
107
76
29
7
173
169
174
153
110
106
85
41
175
177
160
124
111
119
112
100
179
158
145
106
90
91
148
166
190
142
118
123
101
164
189
182
211
178
73
151
173
179
176
174
169
178
70
73
79
80
84
79
48
46
43
43
48
49
48
50
51
48
51
98
60
36
36
42
78
61
86
95
43
39
39
40
146
128
76
88
37
39
39
34
188
72
57
49
36
41
58
47
193
147
176
121
53
40
41
70
184
93
66
47
39
54
54
88
211
126
74
62
54
100
70
76
120
77
108
124
137
141
80
44
44
32
63
113
93
94
64
42
118
125
130
142
142
167
130
112
174
97
74
128
120
174
87
106
202
113
71
96
111
207
62
113
210
123
101
150
172
215
99
116
197
108
144
181
169
210
82
112
176
172
176
175
159
209
78
107
175
175
174
170
112
102
29
98
175
175
175
182
94
51
1
92
174
173
173
175
144
137
95
137
172
173
172
171
175
178
180
175
172
173
173
172
171
173
174
171
172
171
171
171
171
172
172
169
172
172
173
171
172
173
172
169
172
172
172
170
170
171
171
169
172
171
171
170
170
171
171
170
170
168
171
168
168
170
169
168
168
169
170
168
168
170
169
167
168
169
169
169
170
170
169
167
168
169
169
168
170
169
166
168
168
169
171
168
166
169
167
168
166
167
173
168
166
168
166
167
168
167
168
167
167
167
166
167
167
165
166
165
165
167
165
166
164
164
165
163
163
165
164
164
164
165
164
162
162
164
164
164
162
164
163
162
163
165
165
164
163
164
164
162
163
165
165
164
162
163
163
162
163
165
164
162
161
163
162
161
161
163
164
163
162
163
162
160
161
162
162
162
159
160
161
160
161
163
160
161
158
159
160
160
160
161
160
159
157
158
158
157
158
159
158
158
156
158
156
156
156
157
158
158
157
158
157
156
157
157
156
157
155
156
157
156
157
156
155
156
152
154
156
154
155
155
153
155
151
154
155
155
155
155
155
154
151
153
153
155
154
154
154
153
151
152
152
153
154
154
152
154
149
150
152
152
153
153
150
151
148
149
151
151
150
151
151
151
147
149
149
150
150
151
149
151
147
150
149
149
150
150
149
150
147
149
149
147
147
149
147
149
146
149
148
147
148
148
147
147
146
149
148
146
148
147
147
146
147
149
147
146
146
148
145
146
148
148
147
147
147
146
145
146
144
147
147
146
146
147
145
145
145
145
147
146
146
147
145
146
144
146
146
145
144
146
145
145
162
163
163
160
161
163
162
158
163
164
164
165
163
162
161
160
165
164
164
165
162
163
163
161
166
164
164
165
163
163
162
160
168
167
165
164
163
164
163
161
168
166
168
166
163
165
164
161
166
166
168
166
164
165
164
163
169
169
168
166
165
165
163
164
168
167
169
169
166
165
163
163
169
169
169
169
166
166
166
163
168
169
169
169
165
167
166
164
169
167
168
168
166
165
165
164
168
168
169
169
165
165
164
164
170
168
170
167
167
168
167
166
171
168
170
169
168
168
167
167
170
171
172
169
169
171
167
169
173
171
173
171
170
172
171
171
173
173
174
172
171
172
173
173
173
174
176
174
172
173
173
183
172
175
176
175
174
176
184
146
174
174
175
176
176
186
148
36
174
177
177
176
185
145
35
11
177
177
179
186
150
33
11
16
179
180
189
161
40
10
15
16
180
187
176
55
9
16
15
16
182
183
76
10
14
16
16
18
189
99
11
15
15
14
16
18
143
23
11
15
16
15
16
18
42
12
12
11
14
16
16
17
11
16
12
10
12
15
17
17
15
15
13
11
10
14
18
16
14
15
15
14
11
11
16
16
16
16
14
14
15
12
14
16
16
16
13
11
14
15
16
15
15
16
14
11
11
12
13
14
14
15
14
12
11
11
11
11
13
15
13
12
12
11
12
11
13
13
13
12
11
11
13
13
14
12
13
12
12
12
13
14
13
13
13
13
12
12
13
14
13
13
13
12
12
12
12
13
14
13
13
13
11
12
12
13
15
14
15
15
13
13
13
14
15
15
15
14
13
14
14
15
16
15
15
15
13
14
14
15
15
15
18
42
14
11
13
15
11
15
16
28
20
11
13
17
11
15
15
14
14
17
16
16
8
11
11
9
8
10
10
12
8
19
17
10
8
8
8
9
63
21
14
12
7
9
12
11
147
107
105
81
83
81
27
18
116
90
100
68
92
41
22
17
78
56
20
11
15
19
22
12
77
59
12
17
18
22
16
6
38
17
13
18
17
20
10
18
7
7
10
19
21
12
25
118
8
8
8
12
15
25
119
68
8
8
9
7
17
121
63
9
4
7
9
4
82
93
9
14
47
18
7
10
117
43
9
14
184
165
102
28
122
30
11
8
184
185
188
143
142
68
60
12
180
179
181
155
98
100
140
151
176
187
179
187
197
130
120
183
66
93
159
183
134
41
112
185
56
55
48
151
141
45
108
174
38
63
32
90
116
68
101
216
37
55
32
94
115
200
228
240
52
69
46
91
120
237
224
206
63
67
34
99
116
232
239
240
89
61
28
126
135
228
244
252
124
69
44
142
156
228
202
133
75
57
63
111
146
174
184
147
39
56
28
20
54
30
60
32
46
60
21
17
38
19
57
25
62
41
19
11
35
18
48
26
101
83
29
2
48
61
100
116
190
179
123
92
154
170
176
178
178
173
175
177
172
169
169
170
177
173
170
169
170
167
167
168
179
171
167
169
169
167
166
167
178
170
166
168
168
167
166
168
179
169
167
168
168
166
166
168
173
169
167
167
168
166
166
167
171
171
167
167
168
166
165
168
170
170
166
167
168
166
166
168
170
169
166
167
167
167
167
168
170
169
166
167
167
165
167
170
169
169
167
168
168
166
167
167
170
168
165
168
168
167
166
167
168
168
166
168
166
166
165
166
168
166
166
166
166
166
165
166
168
166
164
166
165
165
164
166
167
165
163
166
166
165
164
165
168
167
164
167
168
165
164
166
167
165
164
166
167
165
164
166
169
167
165
166
166
165
164
167
166
165
165
167
165
165
165
167
165
166
164
165
165
164
164
165
165
165
164
165
165
162
164
163
164
163
162
163
164
162
163
164
164
162
161
163
164
163
161
164
164
161
161
166
165
162
162
162
163
162
161
162
164
162
163
162
164
162
161
164
163
161
162
163
162
160
161
163
161
161
162
162
161
159
157
161
160
159
161
160
160
158
155
158
158
157
159
159
158
156
154
158
157
156
157
157
157
154
153
157
156
156
156
157
157
155
155
157
156
156
157
156
156
154
153
155
155
153
156
155
156
153
151
153
154
153
153
154
155
153
151
154
154
153
152
154
154
152
150
152
151
151
152
153
151
149
151
152
151
151
150
152
151
150
150
151
149
149
150
150
152
149
149
152
151
148
149
150
150
149
149
150
151
149
149
149
150
147
147
150
149
148
150
150
150
148
148
149
148
148
148
148
148
148
148
148
149
147
146
147
149
147
146
148
148
146
146
147
149
147
146
148
147
145
146
146
147
146
145
147
146
144
146
147
146
146
144
146
145
145
144
145
147
145
143
144
145
144
145
145
159
160
159
159
160
159
158
161
160
159
160
161
159
158
159
161
161
161
159
161
160
159
160
160
162
162
161
161
160
160
161
162
163
162
162
163
161
162
163
162
163
162
164
163
163
162
162
164
163
163
164
165
163
162
164
164
164
163
163
165
164
162
163
164
164
164
163
166
163
163
164
165
164
165
164
166
165
164
163
164
164
165
164
166
166
163
164
164
165
165
164
166
164
163
164
165
164
165
164
166
163
162
164
165
166
166
166
166
165
164
164
164
169
166
166
168
169
167
165
166
169
168
169
175
175
171
174
170
168
175
177
137
84
70
107
164
180
165
81
18
6
4
5
46
152
48
10
13
12
10
8
5
37
10
15
14
13
11
9
9
10
16
16
13
15
14
9
9
15
16
13
10
14
15
10
9
17
15
10
10
14
14
11
9
18
13
11
10
16
14
14
12
18
11
13
12
16
13
14
16
17
11
13
14
16
11
13
17
17
12
12
16
15
10
13
17
16
12
13
14
13
11
14
16
16
13
12
12
12
12
16
17
16
14
11
9
12
13
16
17
14
13
11
9
11
15
16
15
13
12
12
10
9
10
14
13
13
11
14
11
8
9
15
14
13
13
14
10
10
10
14
15
12
12
12
11
12
12
13
17
10
10
12
13
12
13
12
16
12
12
13
14
12
12
11
13
12
12
13
12
12
11
11
11
12
12
13
12
11
11
11
11
12
12
13
12
11
11
11
11
12
11
13
13
12
12
12
12
12
11
13
13
12
12
13
12
14
14
13
13
12
16
14
9
15
14
13
13
11
15
11
10
13
13
14
12
11
10
10
12
10
11
14
12
11
10
10
9
10
9
12
12
11
12
9
16
11
9
11
12
13
12
10
11
11
10
12
12
12
12
4
56
11
12
11
11
11
5
69
128
14
10
11
11
6
80
121
25
12
9
10
8
91
111
19
9
10
11
9
89
99
14
8
12
10
15
93
82
12
14
10
10
18
113
87
11
14
14
10
11
119
89
12
14
14
13
12
12
78
9
14
14
13
13
12
12
5
12
14
13
13
14
13
13
12
10
11
12
12
14
12
14
15
12
9
10
10
13
13
12
13
15
11
9
9
9
10
9
10
10
10
9
9
8
9
9
4
5
9
9
9
8
5
7
101
43
14
9
7
14
46
25
189
182
137
26
14
111
139
74
166
184
168
30
7
25
10
89
189
183
134
47
23
6
11
87
224
185
114
58
36
10
19
74
232
185
132
37
6
11
10
92
230
228
230
64
4
16
12
102
242
231
233
79
4
11
8
45
197
152
160
25
10
12
11
9
121
157
40
14
16
11
12
11
122
35
17
16
10
10
9
11
5
8
14
31
31
5
6
9
6
9
54
146
163
100
33
7
13
82
169
175
174
180
164
116
129
173
171
169
168
170
171
173
175
171
170
167
167
168
166
166
167
167
168
167
166
167
165
166
168
166
167
167
164
166
165
166
166
164
164
165
164
165
165
164
165
163
164
164
164
165
163
163
165
164
163
163
163
165
164
163
166
165
164
163
164
164
163
163
166
164
164
163
163
165
165
163
167
165
164
163
162
164
164
162
165
165
165
163
162
163
162
159
166
165
165
162
163
163
163
162
166
165
166
163
163
164
163
161
165
165
165
164
163
162
163
162
164
164
163
162
162
161
162
160
164
163
163
161
161
161
162
161
163
162
162
163
162
163
162
161
164
164
163
161
161
163
161
160
164
163
162
160
161
160
160
160
165
162
161
159
161
159
161
145
165
164
163
160
161
163
164
135
165
164
163
160
158
157
150
132
163
161
164
161
156
165
177
129
162
162
163
161
159
181
215
172
162
163
162
160
159
164
184
171
164
163
161
159
159
158
157
159
162
161
160
159
159
161
159
158
162
161
159
158
159
159
158
158
162
160
160
158
161
160
157
158
160
160
160
157
159
159
158
158
158
158
160
157
159
158
158
157
158
159
158
156
157
158
156
156
156
157
157
155
156
157
156
156
156
156
156
155
156
155
156
154
155
156
156
155
156
155
154
155
154
156
155
153
155
154
154
155
152
154
154
154
155
153
153
153
155
154
153
153
153
153
153
153
152
151
152
153
152
152
151
153
149
150
151
151
150
150
150
152
148
148
149
151
150
148
150
150
148
148
149
150
149
148
148
150
149
150
147
148
148
147
147
151
149
148
149
146
144
148
149
150
147
147
147
146
148
148
148
149
145
146
146
145
147
147
148
148
145
145
145
144
146
146
147
149
145
145
144
144
145
144
145
147
144
143
143
143
144
142
143
145
143
144
142
141
143
143
143
143
143
142
143
141
141
141
142
144
159
161
163
160
161
162
162
163
161
161
162
162
163
162
162
161
160
161
163
162
162
162
164
163
161
161
163
163
163
164
164
164
161
161
163
162
164
165
163
163
163
162
165
164
164
163
163
163
162
162
164
164
163
163
162
163
164
163
166
164
160
163
162
162
163
163
164
161
162
163
162
162
162
165
165
162
163
165
162
162
162
163
165
162
162
164
164
163
163
162
165
163
164
165
164
163
165
164
165
163
163
164
163
163
165
164
165
163
164
164
163
164
165
165
166
165
165
164
163
165
166
167
168
165
165
165
162
165
173
168
168
166
166
166
165
165
141
176
169
166
165
167
165
165
28
135
177
167
169
167
166
166
6
25
130
176
170
168
167
167
10
6
21
129
177
169
168
168
9
9
6
26
141
177
171
172
8
8
9
5
39
162
180
172
9
9
9
10
6
53
68
35
10
9
10
11
9
5
4
6
11
9
11
11
10
9
10
9
12
9
11
12
11
10
10
10
12
10
11
12
10
9
10
10
12
10
11
11
9
9
9
10
12
11
12
10
9
9
8
10
13
13
12
10
9
9
8
10
13
14
12
10
10
10
8
10
14
16
14
9
10
11
8
10
16
16
19
13
9
11
10
11
18
15
28
17
11
10
10
11
18
15
15
15
15
10
10
13
18
17
16
14
15
10
10
13
17
17
14
15
13
10
12
12
14
16
15
16
14
12
13
12
12
15
18
17
15
14
13
13
12
13
18
18
17
15
14
13
12
10
15
19
17
21
24
23
10
9
28
39
39
44
37
28
8
10
32
45
45
44
33
24
11
27
25
44
46
47
36
33
53
49
10
29
57
57
44
39
66
20
14
14
52
55
37
32
14
15
13
9
34
42
19
31
58
10
10
11
26
26
10
29
36
12
12
11
13
13
13
16
7
16
13
12
11
11
13
14
10
15
13
12
11
12
13
14
12
16
11
10
11
14
14
15
13
12
10
10
12
15
15
16
13
12
12
11
13
16
15
15
12
13
14
11
15
16
15
13
14
15
13
13
15
15
13
12
15
15
13
15
13
12
11
9
14
13
13
12
10
10
9
8
12
11
10
8
8
9
8
8
9
9
9
9
9
9
8
8
8
9
9
9
9
9
9
8
9
9
9
8
6
8
6
4
13
21
8
12
26
26
41
69
79
51
22
102
115
89
52
32
178
102
12
27
16
17
31
37
50
29
13
7
10
80
138
148
77
81
23
6
29
186
223
224
171
142
12
6
13
72
98
88
166
104
51
21
10
10
9
6
101
69
48
64
14
19
5
57
9
11
19
31
13
8
41
165
8
10
15
28
39
19
15
72
11
9
6
24
31
25
16
5
11
6
54
149
108
56
39
33
4
59
162
176
177
171
148
97
107
160
171
167
168
169
174
178
176
170
166
167
167
167
168
169
168
167
166
166
167
166
166
168
166
167
165
164
166
164
165
168
165
165
164
164
165
165
166
166
164
164
164
163
163
164
164
165
163
164
163
162
164
162
164
163
163
162
162
163
163
163
163
163
163
163
162
163
162
164
163
164
164
164
162
162
163
163
164
165
164
163
162
162
164
164
164
163
161
161
161
162
163
163
164
163
162
161
160
163
164
162
163
163
161
161
160
162
162
161
163
162
161
160
159
161
161
161
161
162
161
160
160
160
159
160
161
162
161
160
159
160
161
161
160
160
161
160
160
160
162
160
159
160
161
159
160
158
160
159
161
161
162
154
148
147
149
147
148
150
130
169
178
178
176
174
175
175
106
173
188
188
189
187
188
186
122
178
187
186
187
187
186
184
98
172
188
186
185
186
184
184
136
177
186
185
187
187
186
185
160
172
179
180
182
183
181
181
159
159
160
161
160
160
160
161
159
159
159
159
159
158
160
158
159
159
159
159
159
159
160
159
159
159
158
160
160
161
159
159
158
159
160
161
159
161
162
160
158
158
160
160
159
159
159
159
158
158
159
159
158
158
159
159
157
158
159
159
158
158
158
157
156
156
157
158
158
157
157
156
157
155
156
158
157
156
157
156
156
154
154
154
156
155
157
156
155
153
154
155
155
154
156
157
155
154
154
152
153
154
155
155
153
152
154
154
152
152
152
153
152
151
151
151
151
153
153
152
151
149
150
150
150
150
153
152
150
149
150
150
149
149
151
152
151
150
150
149
148
149
149
150
149
148
148
149
148
148
149
150
149
147
148
148
148
148
148
150
149
148
148
147
147
146
148
150
148
148
148
148
147
148
149
148
146
146
146
147
146
147
147
147
144
144
145
145
146
146
145
147
142
144
144
144
145
145
145
146
144
142
143
144
143
146
146
145
163
164
162
162
162
161
160
163
162
163
162
163
162
162
163
164
164
162
161
163
163
162
163
164
163
162
162
163
162
162
162
164
164
164
163
163
162
163
165
163
164
163
163
163
164
164
162
158
163
162
162
164
164
163
163
163
163
162
162
163
164
163
164
165
164
163
163
162
162
163
163
165
165
163
163
163
163
163
163
165
163
162
163
165
163
164
164
164
163
163
163
164
163
165
164
164
164
163
162
163
165
165
164
165
164
164
163
165
166
165
167
166
166
164
164
166
163
165
165
165
164
164
165
166
164
165
165
166
166
165
163
165
166
165
166
168
166
165
165
165
165
166
167
168
167
167
166
168
167
167
169
170
169
167
166
168
169
170
173
182
170
168
168
171
173
181
173
113
174
178
181
180
173
121
46
8
156
126
102
79
41
11
9
13
19
9
3
2
5
10
13
13
7
8
8
8
9
11
13
15
9
9
9
9
10
12
12
15
9
9
9
9
10
12
12
14
9
9
9
9
10
13
12
13
10
9
8
9
10
12
12
13
11
9
8
9
9
11
13
13
12
9
7
8
8
10
13
13
13
10
7
8
8
9
12
13
14
11
9
8
9
9
11
13
14
13
10
9
9
9
10
13
14
13
10
9
9
9
10
11
14
14
10
9
9
9
12
12
14
13
12
9
8
12
14
14
14
14
13
9
10
14
15
15
14
13
10
10
14
14
15
15
13
9
8
10
13
14
14
14
12
9
8
11
11
12
13
13
18
12
8
20
15
16
16
16
22
15
11
8
11
16
18
17
27
19
14
9
10
15
17
16
33
23
17
14
9
13
16
16
32
27
20
32
11
9
15
15
31
32
15
23
23
9
14
15
23
29
22
12
27
14
14
16
27
15
26
10
13
16
15
16
21
13
26
29
15
12
14
15
16
14
21
41
19
13
14
14
15
15
15
19
16
14
15
14
16
16
14
13
13
13
14
14
16
14
13
13
12
12
10
6
15
13
12
11
6
9
32
78
13
8
7
21
65
116
159
173
12
51
104
150
171
175
169
166
7
81
179
172
166
167
166
166
8
7
94
174
168
167
169
171
8
6
13
128
183
176
169
157
8
8
5
34
104
78
40
19
9
8
7
5
0
2
17
28
8
19
26
43
78
73
73
76
62
63
76
47
40
48
63
85
23
17
6
6
93
151
155
160
38
40
41
41
52
56
57
58
149
151
159
159
155
156
157
158
223
225
226
228
226
225
226
226
81
103
117
133
131
130
130
131
76
160
159
158
156
156
155
155
166
170
168
163
162
163
164
162
178
166
165
163
162
164
163
163
134
169
172
165
163
164
165
158
11
53
116
162
172
168
147
93
25
8
6
36
101
151
122
95
48
32
27
13
4
22
57
109
162
110
57
38
32
18
6
14
172
175
167
127
77
39
29
23
167
168
169
170
183
159
93
44
166
166
165
165
186
197
188
161
165
165
163
169
191
190
184
181
164
163
164
169
195
195
188
186
163
164
163
165
196
202
190
187
163
163
164
161
187
204
192
188
163
164
163
160
172
201
195
188
165
165
162
161
160
181
195
190
164
163
163
161
160
162
180
190
163
163
163
161
160
160
160
182
162
162
163
161
161
165
173
150
161
162
162
162
160
163
174
143
161
161
161
161
159
162
170
143
160
159
161
161
159
161
168
141
160
160
159
160
158
162
168
140
161
161
160
159
157
161
167
150
160
160
161
157
158
159
159
160
147
147
149
145
147
148
147
147
172
172
172
170
173
171
169
167
184
184
183
182
183
182
180
180
184
181
179
179
180
181
179
178
184
182
180
177
180
183
181
180
185
186
184
182
185
187
185
185
182
182
182
180
183
183
183
184
161
162
162
159
160
158
160
161
158
161
159
157
158
157
157
159
159
160
159
157
157
157
157
158
159
160
158
157
157
157
157
156
159
160
159
157
158
158
157
158
159
158
157
157
157
158
157
159
157
157
157
157
157
159
157
158
157
157
158
175
159
157
158
157
155
156
173
194
162
148
152
151
154
160
188
171
157
153
150
150
154
159
185
179
157
149
148
150
156
154
165
193
158
143
144
150
156
154
159
188
158
149
146
148
154
155
156
170
162
160
159
158
155
154
151
151
153
153
152
155
152
152
152
151
151
151
151
153
152
152
150
150
151
151
151
152
152
151
150
150
150
150
150
152
150
152
151
150
150
148
149
151
149
150
149
149
149
149
148
149
150
149
148
147
149
148
149
149
149
149
150
148
149
149
148
149
150
148
148
147
149
149
147
148
148
146
146
147
148
147
146
147
146
145
144
146
147
146
145
146
146
146
145
146
146
147
147
147
151
124
114
109
109
102
131
116
157
127
113
108
110
96
125
128
153
123
112
110
111
101
101
105
146
119
116
113
108
90
87
103
147
122
116
109
105
110
161
144
152
129
114
104
104
123
167
134
159
128
114
109
110
115
162
141
164
142
126
119
123
127
172
130
162
151
143
129
135
126
167
124
162
161
159
158
150
133
147
115
163
163
164
164
158
149
165
118
164
164
164
164
168
167
153
127
164
166
164
164
198
166
109
135
166
167
166
165
192
145
80
130
166
167
166
168
175
130
80
80
165
166
167
169
191
130
87
68
166
168
168
172
200
149
91
69
167
169
172
176
193
150
53
22
172
181
175
125
60
19
7
8
170
116
46
9
4
7
9
9
39
7
6
10
11
11
11
11
7
10
10
12
13
13
12
11
12
12
10
12
13
13
12
12
12
13
10
11
12
12
12
12
12
13
11
10
12
12
12
11
14
13
12
10
12
12
11
11
16
14
14
10
13
13
11
11
15
16
15
10
13
15
12
12
14
15
15
12
10
15
13
12
14
15
16
15
9
12
13
12
14
15
15
16
10
11
12
12
13
13
15
16
13
9
12
12
13
14
15
14
15
10
11
12
13
13
14
13
14
12
10
12
12
12
15
13
14
14
11
12
12
12
15
14
13
12
12
13
13
13
14
13
13
14
14
14
14
14
15
17
14
15
15
14
15
15
18
23
10
13
14
13
14
13
13
13
11
10
11
10
13
14
14
15
16
13
14
10
16
16
16
16
16
18
16
9
16
15
15
15
15
16
13
12
15
15
16
15
14
14
12
13
16
15
15
14
13
14
15
11
14
14
14
13
13
14
15
12
14
14
14
15
14
15
15
13
16
15
15
15
14
14
15
11
16
15
15
14
14
14
12
9
15
15
15
15
14
13
11
10
15
15
15
15
14
13
13
12
14
14
14
12
6
11
26
25
12
9
8
24
79
133
187
151
14
41
96
156
195
210
219
164
130
162
168
171
191
201
215
159
170
168
171
161
189
202
215
155
165
173
182
164
191
204
216
154
166
174
185
168
198
214
226
160
174
192
191
169
167
137
108
55
124
102
69
29
15
4
0
0
6
0
0
17
32
43
75
92
45
80
78
80
99
70
48
43
57
47
47
64
94
125
159
130
106
144
162
185
207
216
208
143
160
157
154
171
182
192
192
131
59
60
63
64
66
67
68
64
161
159
160
164
164
161
162
163
224
224
222
224
224
222
221
223
133
133
131
133
137
138
140
137
154
156
146
140
152
162
178
143
162
161
142
138
155
176
190
152
161
159
162
161
171
192
199
150
128
91
105
101
112
187
204
163
84
76
97
98
111
183
200
183
99
106
134
129
134
175
169
179
129
126
142
133
134
166
156
155
49
100
144
150
132
123
141
156
8
9
39
95
146
159
151
151
30
26
13
5
24
82
106
141
104
52
36
32
19
5
10
47
172
170
141
79
42
31
24
9
169
182
184
180
156
96
41
27
172
176
132
165
185
181
147
105
175
167
146
176
182
171
166
157
182
175
165
176
183
170
164
128
184
184
178
180
181
167
159
160
188
190
187
178
181
168
162
121
196
195
188
173
185
169
157
148
193
200
187
172
180
165
159
128
183
202
191
171
172
163
159
124
169
194
194
178
175
161
155
145
158
163
189
176
171
161
154
105
158
139
155
181
177
153
144
165
160
150
147
161
180
152
141
171
159
158
157
157
173
162
153
169
147
145
144
143
163
164
154
134
164
164
167
165
170
150
112
111
177
179
185
183
179
139
92
131
177
177
179
178
176
148
122
151
180
177
173
177
176
154
134
159
185
183
183
184
179
159
142
161
186
186
189
187
179
158
149
164
162
161
163
162
166
157
153
168
158
156
157
156
158
152
158
178
158
157
156
155
157
153
167
181
157
157
155
154
153
155
173
181
157
156
156
155
148
155
174
185
159
156
157
157
143
156
173
183
158
157
157
156
143
159
176
184
158
155
157
157
145
159
174
184
152
147
145
144
148
165
176
185
150
148
147
147
150
162
177
182
147
146
148
145
152
164
179
186
149
147
146
144
155
164
178
188
148
149
148
150
160
163
179
185
157
155
156
147
151
155
178
185
153
151
152
149
159
139
168
179
150
152
151
151
164
140
157
175
151
151
151
150
162
138
148
170
151
150
150
151
165
140
138
147
150
150
151
151
165
141
132
122
149
148
150
151
166
138
120
107
148
147
148
153
168
141
125
79
147
149
150
152
165
140
136
101
147
147
149
154
167
137
149
131
147
147
148
150
165
134
133
76
146
146
147
149
165
136
152
106
147
145
148
148
162
135
135
85
75
65
74
108
106
100
105
112
72
62
75
123
130
127
132
111
72
61
76
120
134
143
137
140
73
60
73
108
124
129
133
176
78
59
73
114
126
127
136
166
76
59
75
117
129
137
140
120
70
62
77
113
120
124
128
107
69
62
78
120
134
132
132
104
69
62
80
117
131
135
133
101
69
62
81
109
120
130
133
113
71
62
82
120
131
131
147
155
69
61
81
118
126
115
143
151
78
61
82
120
132
111
135
160
81
62
80
124
145
125
148
151
71
64
85
123
145
115
92
49
71
70
85
85
55
24
11
10
54
36
24
15
13
14
15
14
13
11
13
13
13
12
11
11
9
9
9
10
12
12
10
11
10
11
12
12
12
12
11
12
12
12
12
12
13
12
12
12
12
12
12
13
13
12
12
12
14
14
14
14
13
13
12
12
14
14
14
14
14
14
13
12
13
14
14
14
15
15
14
12
12
14
14
14
14
15
14
12
12
13
14
15
14
14
13
12
13
13
14
14
14
14
14
13
13
13
14
15
14
13
14
14
13
15
15
15
14
13
15
15
13
15
15
13
14
13
14
15
13
13
13
14
14
13
14
15
12
13
13
14
14
13
14
14
13
13
13
13
13
14
14
14
13
13
13
13
14
14
15
15
14
15
14
14
15
15
15
16
15
16
15
15
14
15
15
15
15
15
14
14
14
14
14
14
13
13
12
12
11
11
11
10
11
11
10
10
10
12
12
13
15
15
15
15
15
15
14
15
15
15
15
15
14
14
14
14
16
15
14
14
14
15
15
14
15
15
15
15
15
14
15
14
14
14
14
14
14
14
14
14
14
14
14
14
14
14
15
14
15
15
14
15
15
15
14
13
14
14
13
14
14
14
14
13
13
13
13
14
11
10
5
10
12
11
10
8
14
42
112
101
9
10
14
63
118
163
249
165
50
53
21
112
158
164
243
152
168
106
25
116
159
168
242
160
168
100
29
105
150
169
241
165
163
90
28
97
134
176
244
155
163
89
24
99
128
168
252
168
169
92
19
100
150
158
168
86
162
82
20
45
38
20
8
1
25
12
6
2
0
10
28
42
13
27
40
72
101
98
102
98
84
94
87
64
52
54
98
96
53
33
48
108
136
114
136
132
165
77
58
112
127
93
52
58
169
73
29
45
73
58
52
98
156
63
31
67
84
124
157
137
66
55
73
145
142
101
56
44
162
162
165
133
48
70
100
135
223
224
214
140
62
91
159
207
144
139
134
109
85
94
131
137
162
88
104
173
165
102
43
49
165
98
99
202
185
84
40
47
148
108
83
90
138
152
60
75
132
147
97
71
84
154
153
93
146
148
78
61
115
96
145
161
175
147
108
90
119
92
77
156
122
140
100
68
87
99
63
89
150
151
109
72
76
99
81
86
126
153
99
67
65
109
126
101
126
146
110
86
82
99
120
118
102
137
138
125
104
62
90
106
5
32
85
130
126
108
113
99
20
11
7
26
62
96
119
115
50
35
25
16
6
11
48
92
108
84
43
30
28
17
7
8
38
45
44
36
36
32
25
20
127
139
137
137
134
124
69
44
40
55
75
79
69
65
87
117
90
89
95
88
73
80
107
114
70
81
88
88
77
97
125
104
51
53
67
74
64
84
120
97
143
166
150
124
102
136
129
93
69
93
85
84
92
104
110
97
158
155
101
53
55
58
77
102
194
145
48
30
49
52
71
102
168
57
23
28
32
41
78
106
100
26
23
27
33
32
77
112
92
27
27
31
39
44
82
107
107
33
32
34
35
61
122
118
129
40
34
38
37
41
100
119
154
59
33
42
55
41
75
109
176
98
34
44
48
44
82
111
182
150
42
38
39
39
67
114
185
184
76
30
34
35
61
113
184
190
135
33
30
35
70
118
182
190
182
81
28
40
81
120
181
191
192
156
43
37
90
119
186
190
195
189
113
41
103
122
184
188
194
183
169
81
90
125
186
187
195
186
179
118
100
122
186
188
195
189
146
91
100
119
185
190
194
170
83
76
116
121
187
190
183
107
63
80
92
113
187
191
150
57
65
78
92
106
186
179
95
47
43
59
93
109
187
152
83
77
70
75
103
112
178
124
101
106
106
102
103
108
160
106
101
106
106
98
112
111
140
100
101
100
99
100
94
106
125
97
99
101
98
85
59
91
113
87
92
84
51
26
14
88
97
50
58
54
32
19
15
90
94
50
56
57
40
22
17
91
79
67
54
61
53
25
21
95
97
89
71
60
50
35
31
99
109
93
92
75
45
29
26
101
94
78
72
62
38
29
25
96
89
80
75
61
43
30
27
94
73
77
75
68
45
28
24
95
102
122
140
137
138
142
137
134
122
141
136
137
139
140
135
133
132
129
134
136
147
144
136
131
144
126
136
143
147
140
134
130
141
125
137
138
147
143
135
132
138
128
136
129
143
140
133
130
137
131
138
134
143
139
132
125
135
130
134
135
148
143
133
128
112
124
135
132
147
141
132
127
103
119
137
132
145
141
127
125
138
126
136
131
144
139
131
126
133
133
140
139
153
141
119
119
140
145
145
112
90
52
19
34
113
93
48
15
7
8
10
7
17
10
9
11
11
12
12
11
13
13
14
14
13
13
13
12
12
14
15
15
14
15
12
11
10
10
11
12
13
14
12
11
11
12
12
12
12
12
12
11
11
11
12
12
11
12
12
11
11
12
12
12
11
12
12
12
13
12
13
13
12
12
12
11
13
13
14
13
12
12
12
11
13
14
14
13
13
13
13
12
13
14
14
14
13
14
13
13
12
14
15
14
14
14
13
13
12
13
14
14
14
13
12
13
11
13
14
14
13
13
12
13
12
11
13
13
13
14
12
13
13
11
12
13
13
14
13
14
13
12
12
13
13
14
14
14
15
15
14
14
14
15
14
14
14
14
14
14
15
15
15
15
14
14
15
14
15
15
16
16
15
16
16
16
16
15
14
15
15
15
15
15
15
15
14
14
14
15
14
14
14
15
14
14
13
13
14
12
12
13
11
11
9
9
10
9
10
10
10
10
13
14
15
14
15
16
16
16
15
14
15
15
16
16
15
16
14
14
15
14
15
16
15
15
14
14
15
14
15
15
15
15
14
14
15
14
15
15
15
15
14
14
15
14
14
15
15
15
14
14
14
13
13
14
13
12
13
14
14
14
11
9
19
35
11
12
11
8
36
81
118
121
18
27
40
76
129
147
138
123
104
137
135
156
142
132
131
129
121
144
138
152
137
135
130
128
121
142
138
153
137
137
132
127
132
142
140
154
140
141
133
128
138
142
142
155
142
143
139
134
134
144
153
167
151
145
121
91
142
141
122
96
64
33
17
8
45
25
13
2
1
2
0
8
0
1
10
25
38
70
107
112
73
98
97
104
101
80
60
35
66
48
46
58
75
71
50
32
99
121
149
136
81
57
100
161
153
124
84
68
114
168
173
144
80
91
140
171
162
140
130
128
155
171
159
145
130
130
133
133
132
127
146
149
133
137
137
135
58
59
66
72
67
71
72
69
156
148
113
129
127
127
131
126
222
218
201
222
218
222
223
222
141
137
123
137
131
134
133
130
114
133
141
139
134
132
126
128
123
140
144
142
135
131
128
128
125
140
145
141
127
125
127
122
128
139
145
140
127
126
131
125
100
136
145
139
128
127
130
120
159
107
141
139
127
126
129
120
156
167
107
138
131
124
127
125
120
163
169
104
117
122
125
127
128
136
162
172
97
113
122
124
137
139
138
160
172
99
116
123
130
140
146
136
141
173
103
115
130
141
142
138
113
136
176
109
136
141
139
135
120
119
133
177
136
149
149
134
121
118
112
133
37
93
143
138
124
119
117
121
10
6
28
70
104
124
119
118
28
21
13
5
15
49
88
123
103
60
33
22
16
7
9
37
144
147
122
70
35
24
19
10
135
141
146
142
114
80
40
25
133
140
140
133
124
127
113
91
131
139
142
132
119
118
113
124
133
137
136
128
121
120
109
117
133
142
139
129
123
115
108
119
135
145
144
132
121
115
107
120
134
145
140
129
114
111
111
121
135
148
139
127
118
110
108
117
136
150
141
133
115
106
108
117
135
149
143
130
112
103
104
113
139
151
144
133
112
103
106
108
141
148
144
130
115
101
102
108
138
147
144
129
112
98
101
112
140
148
143
129
118
105
101
116
141
148
145
134
116
100
96
112
141
147
146
133
115
95
102
112
139
142
141
129
111
101
103
110
140
144
144
129
108
98
102
107
139
143
142
129
109
98
103
111
141
143
141
128
110
97
104
106
140
142
143
127
103
95
106
106
140
143
142
126
102
94
108
106
140
143
141
121
98
95
108
106
140
142
140
120
100
95
105
109
139
140
140
124
98
97
104
112
137
137
139
122
99
100
101
110
135
137
138
127
103
101
105
110
134
138
138
128
102
100
107
105
136
141
137
128
109
106
107
109
137
139
137
125
111
109
108
107
137
140
138
124
116
116
113
113
139
142
140
122
115
116
113
117
139
141
141
125
112
119
108
109
138
137
140
120
110
117
107
109
136
141
138
118
105
116
107
109
135
140
137
122
108
108
104
111
135
140
136
120
110
113
105
105
136
138
136
121
112
108
97
103
135
137
134
122
110
106
102
107
137
136
133
119
112
104
107
109
134
129
128
132
126
136
136
140
130
129
134
131
134
139
131
138
129
128
135
142
136
141
136
141
129
129
133
138
138
141
144
142
126
132
128
134
137
142
137
134
127
133
131
137
138
141
138
133
129
133
137
139
141
135
134
137
127
138
137
147
145
134
134
132
123
139
138
150
147
139
135
131
126
140
143
147
138
129
137
133
124
136
144
144
136
132
131
132
128
129
138
144
132
125
126
135
106
137
138
137
131
126
129
133
29
117
137
139
133
133
131
140
8
36
122
139
128
131
135
141
12
8
55
137
138
138
144
138
12
12
12
105
142
143
145
138
13
12
9
46
138
140
132
108
12
13
12
14
33
29
23
20
12
12
12
12
10
13
14
11
12
12
12
12
12
21
45
43
11
12
12
12
13
10
19
45
12
12
11
12
13
12
8
9
12
12
11
11
13
14
10
9
13
13
12
12
13
14
12
9
13
13
13
13
14
14
14
11
13
13
13
14
14
14
16
11
13
12
13
14
14
15
16
12
13
12
13
14
14
15
15
14
14
14
13
14
16
16
15
16
15
15
14
15
17
16
15
17
15
15
15
16
17
16
16
17
15
16
15
16
17
16
16
17
16
15
15
15
15
15
16
16
16
15
14
14
14
14
14
14
14
13
13
13
13
14
14
15
14
13
12
12
12
12
12
12
11
9
9
9
8
8
9
8
10
10
10
11
11
11
11
11
16
16
15
16
17
17
16
16
15
15
16
16
15
15
15
15
15
15
15
15
15
15
16
16
15
15
16
15
15
16
15
15
15
15
15
15
14
14
14
12
14
14
13
12
9
12
22
43
10
11
20
39
65
103
133
144
65
85
129
145
137
152
142
143
136
135
144
147
127
143
139
134
132
132
145
146
128
144
149
136
136
133
143
152
134
147
144
141
131
129
146
153
127
143
144
138
132
134
143
148
118
137
148
143
139
141
144
152
124
139
131
116
146
146
141
113
68
52
31
20
76
46
24
11
4
4
62
57
2
2
3
3
10
30
171
178
26
43
70
102
112
112
184
215
116
109
78
47
40
56
125
136
16
16
45
105
153
165
148
133
75
139
175
163
133
135
137
136
172
153
142
136
114
128
138
143
126
125
144
134
111
140
138
144
127
129
144
131
107
141
130
138
129
129
144
134
116
141
137
141
132
131
148
136
127
137
140
143
70
67
70
92
138
135
132
137
123
121
108
110
134
138
136
140
222
222
219
181
136
138
140
136
129
129
129
129
135
145
153
134
124
124
136
136
134
138
150
134
129
129
141
137
141
139
153
141
128
127
134
135
139
140
156
146
127
127
133
139
143
132
151
143
122
125
138
133
138
132
153
136
122
126
141
136
133
138
145
131
126
130
133
132
139
137
149
131
124
128
135
137
135
132
142
142
123
125
137
141
137
128
141
134
114
122
136
136
130
126
133
133
113
127
139
132
135
133
129
138
102
125
141
139
137
124
134
139
103
108
145
142
135
131
130
135
177
115
123
142
137
133
120
141
121
171
120
116
134
131
134
144
109
125
178
120
112
136
137
131
124
122
142
177
124
106
131
129
74
114
143
141
174
126
104
131
7
22
70
115
135
170
127
108
19
12
6
18
54
93
178
196
53
28
18
14
8
8
85
157
123
110
71
32
18
40
148
66
120
132
145
128
75
115
224
68
125
131
136
136
142
138
139
58
124
123
134
135
140
136
134
144
125
123
132
139
142
137
132
135
129
130
131
130
138
136
137
138
127
127
130
132
138
132
135
134
126
133
131
138
141
133
135
124
127
129
130
135
141
136
131
114
123
123
130
128
129
127
134
133
125
125
125
134
129
128
137
141
124
125
124
134
130
123
129
136
119
119
126
132
133
120
127
122
119
126
126
126
135
119
119
117
118
131
124
126
129
122
123
123
112
126
127
129
128
122
131
126
121
125
129
132
131
119
124
123
125
123
125
127
124
125
123
113
128
128
119
134
127
118
116
108
126
128
119
126
125
118
120
118
127
124
127
127
122
115
125
115
127
123
125
129
124
110
112
108
123
121
123
132
127
113
114
109
122
122
125
131
119
112
121
118
122
116
122
133
122
108
119
124
120
115
126
134
119
112
118
117
116
112
117
134
113
109
113
109
126
113
123
134
116
111
114
119
125
114
116
129
112
117
111
120
126
118
107
130
122
116
113
118
124
119
105
133
123
111
111
125
122
114
96
128
126
109
110
121
121
112
98
124
124
105
103
124
125
118
104
123
126
114
113
125
121
113
108
124
118
118
123
129
118
103
106
128
119
119
109
121
119
108
113
127
122
120
117
112
123
114
113
129
129
123
112
117
132
124
132
118
115
125
123
118
135
133
128
125
121
132
127
121
135
135
131
121
120
128
123
119
134
134
136
120
115
130
123
118
137
142
136
112
118
130
120
126
133
138
134
113
114
136
128
133
145
144
131
113
121
124
123
128
140
145
136
113
133
138
125
127
138
137
130
107
137
139
123
119
136
130
130
117
140
127
120
117
140
134
134
124
136
132
132
128
145
143
136
125
134
143
126
129
139
133
129
124
136
138
131
128
133
135
130
134
139
143
124
126
142
145
142
136
143
139
122
124
141
149
140
135
146
145
129
136
151
155
143
138
149
151
141
146
112
101
92
75
75
71
64
59
20
19
17
18
16
17
18
19
11
14
16
21
21
21
22
26
31
21
15
15
17
17
16
18
60
58
48
34
26
24
23
21
22
46
59
57
52
46
44
44
8
13
37
55
58
58
58
58
9
12
12
31
47
53
59
59
10
10
10
13
30
49
56
59
9
11
11
10
22
35
53
54
8
10
10
10
12
24
45
58
8
9
9
10
10
14
35
60
10
9
8
8
9
10
25
57
13
9
8
8
9
9
12
28
16
9
8
9
9
9
9
8
17
11
9
9
9
9
9
9
17
13
9
9
10
9
9
10
15
16
9
9
10
10
10
10
15
16
11
9
10
10
10
10
12
12
11
9
10
9
10
10
8
9
8
8
9
10
10
10
12
11
9
8
9
9
9
14
16
17
16
10
9
9
9
24
16
17
16
10
10
10
11
36
16
16
17
10
9
10
21
43
16
16
16
11
15
25
36
56
10
14
23
74
107
95
106
119
78
99
112
113
130
113
120
127
159
144
126
111
129
109
106
113
136
133
127
110
138
99
103
123
132
130
124
113
128
97
111
118
139
133
123
107
116
88
133
118
148
141
126
111
119
93
125
118
154
150
131
104
128
110
122
107
155
151
133
103
94
71
52
26
98
79
40
18
10
5
4
2
7
4
4
5
4
3
11
28
2
13
29
50
79
106
120
130
115
127
119
111
82
55
43
39
67
43
46
49
60
82
115
110
96
114
138
95
93
116
129
111
139
140
144
84
79
132
126
117
131
132
139
97
105
133
121
112
137
131
134
98
108
118
123
115
145
137
126
100
119
113
118
135
144
132
121
98
110
112
116
126
138
128
117
91
130
118
109
130
130
126
128
107
124
109
108
136
121
122
123
107
124
95
105
131
132
127
108
102
127
91
108
121
128
131
112
118
133
94
111
135
132
127
115
117
131
97
116
119
137
130
115
121
133
122
127
115
125
135
115
125
135
127
147
124
132
134
115
127
130
127
137
120
126
127
130
138
143
136
118
125
122
130
134
143
138
120
118
129
117
130
140
142
142
128
129
131
119
148
143
131
143
141
134
128
132
145
135
129
143
143
131
134
132
140
124
126
136
135
136
141
129
140
127
140
143
143
140
134
124
132
122
141
143
138
144
129
129
135
139
137
132
143
140
122
126
137
133
128
129
139
146
144
130
136
130
137
138
137
150
137
129
137
127
126
129
131
143
119
126
124
126
116
143
146
146
123
135
137
126
112
139
144
142
129
128
132
119
126
127
133
145
129
129
120
123
131
138
138
133
128
146
127
127
122
147
145
139
126
126
120
120
124
142
151
145
138
21
62
107
150
148
142
124
133
6
6
18
67
113
134
131
140
25
19
13
5
12
49
100
139
113
65
31
23
14
7
8
36
137
122
106
76
39
21
16
9
137
120
126
125
131
93
46
26
131
125
122
120
135
146
123
89
118
124
130
124
137
142
117
135
114
123
131
122
137
139
121
129
116
118
124
121
120
136
118
118
117
109
126
122
131
132
128
121
122
110
120
121
133
139
126
124
119
106
118
107
115
136
117
126
119
116
123
115
111
122
104
125
123
109
123
109
107
127
113
110
127
114
114
122
113
131
115
105
125
114
113
121
127
123
113
126
123
123
128
127
125
122
118
110
118
120
123
128
113
122
128
118
123
119
111
120
108
123
130
132
120
120
103
120
122
128
121
115
117
117
110
127
116
135
118
114
120
121
104
124
111
129
124
117
115
111
116
134
109
127
116
111
127
111
115
125
121
132
114
125
123
112
110
131
120
138
114
117
121
125
112
134
132
119
109
109
125
124
110
115
132
124
121
114
124
121
105
106
129
138
112
111
129
114
102
109
124
128
110
110
145
110
105
117
120
137
120
100
139
110
97
111
116
129
118
113
137
115
92
116
118
124
123
127
137
130
98
100
119
128
119
119
131
116
90
109
112
116
118
109
140
121
75
108
108
120
120
111
135
126
64
97
114
124
116
111
135
121
70
96
116
117
113
110
125
122
124
112
112
125
138
131
120
130
126
113
115
129
144
145
121
138
131
116
108
127
137
147
140
138
119
114
118
126
140
149
141
140
123
106
108
139
141
132
135
124
130
115
106
128
137
139
122
131
132
112
121
129
126
129
124
139
121
109
100
119
126
124
130
140
117
106
111
136
130
121
128
141
135
114
124
126
123
126
128
132
122
117
136
137
130
128
130
137
112
112
123
138
136
116
122
136
127
104
114
132
142
125
131
146
127
101
122
124
135
123
136
135
125
99
123
131
130
114
143
150
128
109
128
129
132
135
138
136
115
120
137
115
126
133
50
45
35
32
34
29
31
30
21
24
27
25
27
26
27
27
24
27
36
41
41
40
36
31
18
18
22
28
40
48
54
52
19
18
16
14
18
25
39
53
39
34
30
23
21
17
15
23
57
56
55
48
49
41
32
21
59
62
61
59
64
61
58
54
54
48
50
48
50
47
44
43
55
43
39
38
41
39
36
33
59
52
37
34
39
41
60
81
59
60
85
105
131
137
122
127
88
127
130
129
146
144
158
131
38
32
44
41
45
53
66
64
6
13
24
24
28
31
32
36
9
15
21
23
36
48
51
52
10
10
9
8
26
39
37
36
10
9
16
30
24
28
28
22
10
10
25
45
40
24
25
22
11
18
17
23
38
39
27
22
20
28
26
18
21
29
32
24
49
46
41
38
29
24
24
25
58
61
56
53
55
44
30
21
59
59
59
55
57
63
58
48
49
49
59
63
86
107
122
129
82
95
111
132
144
142
128
123
135
145
144
133
141
132
119
122
131
132
135
122
143
138
118
119
119
130
147
132
144
125
126
131
122
123
132
121
138
117
117
126
129
132
135
128
130
121
125
135
125
128
125
131
133
132
136
145
128
128
126
126
138
133
113
101
105
87
81
87
69
54
40
35
49
59
55
66
91
70
100
123
37
37
160
220
231
184
216
236
35
72
204
233
253
232
231
206
110
84
153
231
243
161
122
140
59
68
98
147
139
150
130
137
135
145
124
117
128
128
136
131
108
127
133
123
128
138
123
120
105
123
123
129
131
128
126
128
108
118
133
116
117
128
122
130
113
124
145
117
118
130
128
132
130
140
140
125
121
137
143
144
132
129
132
116
127
116
112
131
113
126
128
117
130
136
121
134
123
119
120
124
136
146
137
132
136
126
129
125
126
134
120
113
125
152
131
130
129
119
125
121
129
141
133
123
133
135
126
126
123
145
137
132
119
119
142
126
123
134
137
125
121
119
138
123
115
127
126
125
137
123
131
111
120
144
131
122
124
134
141
116
122
139
137
114
111
128
135
118
127
134
134
118
127
131
116
121
128
129
117
113
130
125
130
127
132
132
118
111
121
118
124
123
121
135
127
109
128
125
125
132
136
136
118
116
135
122
118
124
147
143
116
134
123
118
128
124
147
141
121
119
115
114
135
139
130
148
115
122
121
108
125
126
140
134
116
126
122
126
132
121
126
140
131
134
149
128
129
128
130
139
123
117
124
114
137
129
131
134
132
130
131
123
116
132
141
146
135
127
127
136
106
124
138
133
134
117
127
120
101
125
139
127
123
118
123
124
104
131
126
129
134
138
133
120
115
131
130
123
128
134
146
118
104
119
130
129
137
132
151
125
107
118
117
119
123
130
131
125
115
124
134
131
129
117
123
123
107
110
79
123
126
126
130
120
113
112
3
63
90
97
134
127
116
131
27
163
172
93
72
101
103
121
113
229
221
146
88
55
57
92
132
165
183
162
213
179
112
61
125
133
138
115
136
175
211
194
123
129
127
121
119
101
123
163
114
131
123
123
115
106
124
117
119
127
134
121
128
101
104
116
122
120
125
109
123
122
111
114
120
120
124
112
118
120
122
122
130
128
122
101
103
113
119
109
121
121
124
113
132
115
110
110
111
110
119
122
122
101
115
104
119
124
120
106
124
98
107
118
123
126
128
102
111
103
123
135
125
122
132
103
113
100
108
114
131
126
131
94
103
95
101
123
127
127
120
112
116
115
113
124
119
118
132
124
120
110
117
129
128
117
124
109
117
109
114
119
141
118
115
117
111
104
98
104
120
125
120
101
109
107
100
107
121
138
119
102
109
96
98
110
127
123
124
105
110
106
99
95
111
121
116
107
114
100
108
113
107
114
116
114
118
106
97
116
112
115
122
117
127
113
91
103
107
116
115
106
110
102
97
115
114
121
115
110
123
112
109
118
107
112
116
111
125
115
135
134
101
138
118
110
128
131
121
114
109
130
119
116
129
126
133
116
120
124
136
103
113
119
127
112
110
109
128
97
102
126
120
104
121
139
129
112
130
114
121
123
121
126
108
116
117
107
113
137
123
117
103
106
126
125
118
138
122
122
118
123
114
119
129
153
123
125
137
125
122
119
133
154
129
139
146
120
124
121
110
133
125
114
134
126
116
112
123
130
112
120
124
122
129
123
131
135
120
130
124
117
132
119
116
120
109
142
128
121
115
118
124
119
118
134
118
134
132
116
114
129
122
132
115
118
133
103
132
145
122
132
123
125
120
103
131
165
123
135
129
117
114
109
125
148
110
119
117
104
125
139
143
135
131
121
117
113
135
154
137
142
136
123
102
100
92
84
71
69
31
27
26
24
22
22
24
25
32
31
33
36
39
43
42
44
25
26
27
31
34
41
47
48
43
32
21
18
18
20
25
30
61
57
50
41
31
22
17
17
37
51
56
59
58
48
34
30
16
24
35
42
51
57
46
39
41
32
36
39
40
44
45
47
38
38
47
46
67
66
56
51
31
41
76
104
139
131
112
93
104
123
130
133
126
112
106
119
137
140
132
149
140
104
107
121
140
138
144
134
124
122
133
136
78
87
93
97
95
97
109
110
37
46
34
19
15
16
17
18
43
65
70
63
39
16
11
10
38
57
66
71
66
47
29
22
24
53
68
63
64
60
51
42
19
43
65
62
57
60
70
69
17
32
64
66
41
55
67
68
17
23
62
68
28
55
68
66
18
16
50
74
23
48
67
67
18
15
24
56
21
16
23
23
34
26
15
13
16
19
35
53
123
97
94
86
100
119
111
99
133
127
127
126
120
119
107
110
126
124
116
118
121
114
124
119
119
123
118
116
122
126
136
117
129
124
116
131
118
113
115
135
142
105
115
131
134
131
118
120
134
105
109
119
139
120
129
121
145
113
106
99
90
71
55
45
85
58
43
36
37
47
59
75
40
55
77
100
122
153
178
189
149
173
197
219
234
245
250
246
247
249
245
235
211
185
164
134
183
157
131
112
128
124
118
113
124
97
108
113
142
134
128
114
124
104
120
137
134
118
123
114
107
107
112
127
128
113
113
119
121
111
116
131
127
126
118
103
143
111
122
135
127
131
125
91
133
107
117
126
111
130
131
128
120
112
109
131
120
133
130
103
139
113
110
131
132
135
131
116
140
117
116
121
130
116
108
111
137
130
121
128
124
125
124
104
145
132
134
140
122
131
131
116
137
132
140
132
114
131
127
130
121
120
126
130
123
122
121
125
130
128
123
115
125
122
125
125
122
126
119
117
125
118
136
106
122
125
115
112
120
115
112
99
121
103
113
106
126
123
118
126
123
117
139
119
109
103
121
124
128
132
138
113
100
98
117
114
120
118
130
120
110
116
113
114
129
128
131
123
114
138
127
118
132
129
141
126
109
143
126
121
127
126
143
140
125
124
143
133
139
133
133
125
122
129
127
110
131
137
142
128
98
124
129
127
122
125
130
118
108
120
135
125
139
120
127
123
116
124
135
133
130
123
134
137
136
103
101
131
134
119
122
131
139
114
108
115
142
127
128
131
127
120
125
147
144
125
117
135
139
128
119
125
138
126
116
134
130
122
124
112
135
134
122
147
139
129
107
121
119
131
135
129
129
140
127
129
125
121
133
134
131
126
127
118
133
126
128
146
133
114
118
140
119
117
123
141
128
126
125
130
116
123
118
116
130
121
118
109
118
131
118
110
129
129
119
124
126
127
123
123
112
126
126
118
135
120
118
118
114
128
118
102
121
112
109
121
117
107
124
108
134
130
127
145
130
117
123
94
65
84
106
121
119
119
119
121
129
72
57
79
111
127
124
116
201
204
156
88
59
79
112
134
125
143
192
211
170
103
61
59
126
100
113
143
176
212
183
137
116
115
123
121
107
125
167
201
115
118
121
127
118
109
113
148
118
126
128
122
130
108
98
138
117
110
131
131
128
117
96
105
95
115
135
133
126
125
97
76
99
111
128
131
122
126
99
101
126
111
111
127
139
132
115
115
119
126
111
128
138
116
103
107
122
131
125
119
138
133
110
127
119
120
114
128
131
121
103
127
105
112
102
108
124
112
101
114
124
103
97
108
126
119
112
110
107
107
106
129
128
121
116
110
117
111
108
126
109
107
112
100
110
99
110
110
107
102
112
119
102
109
105
123
124
130
125
120
115
111
108
119
109
109
113
132
112
105
109
118
108
112
101
141
104
119
96
114
106
120
122
144
123
135
99
128
134
111
118
130
127
112
111
117
109
99
114
106
126
110
107
122
110
108
115
110
112
121
105
123
126
103
100
104
108
104
106
119
130
100
113
129
122
111
114
134
124
95
130
129
125
115
117
120
107
104
124
122
